TIC: ABFR_20180831.D\data.ms
Abies fraseri Oil

Time	Counts	
3.091	51530.00	
3.096	50391.00	
3.100	49989.00	
3.104	48993.00	
3.109	49558.00	
3.113	51420.00	
3.117	51952.00	
3.122	48122.00	
3.126	51216.00	
3.130	50657.00	
3.135	49639.00	
3.139	49637.00	
3.143	49159.00	
3.148	49037.00	
3.152	48857.00	
3.156	48458.00	
3.161	48528.00	
3.165	49814.00	
3.169	50837.00	
3.174	49443.00	
3.178	49443.00	
3.182	49831.00	
3.187	48914.00	
3.191	50376.00	
3.195	51195.00	
3.200	49362.00	
3.204	49747.00	
3.208	49781.00	
3.213	49498.00	
3.217	50143.00	
3.221	51505.00	
3.226	50968.00	
3.230	51237.00	
3.234	49100.00	
3.239	49264.00	
3.243	48698.00	
3.247	48991.00	
3.252	47895.00	
3.256	49525.00	
3.260	49733.00	
3.265	50657.00	
3.269	49326.00	
3.273	49470.00	
3.278	48432.00	
3.282	48503.00	
3.286	49662.00	
3.291	48511.00	
3.295	47907.00	
3.299	47115.00	
3.304	48430.00	
3.308	48281.00	
3.312	47825.00	
3.317	48164.00	
3.321	48056.00	
3.325	47999.00	
3.330	47068.00	
3.334	47021.00	
3.338	47653.00	
3.343	48753.00	
3.347	47764.00	
3.351	46805.00	
3.356	48647.00	
3.360	48221.00	
3.364	48323.00	
3.369	48287.00	
3.373	46971.00	
3.377	48276.00	
3.382	49280.00	
3.386	46959.00	
3.390	48300.00	
3.395	47247.00	
3.399	47232.00	
3.403	45694.00	
3.408	47850.00	
3.412	46932.00	
3.416	46999.00	
3.421	46430.00	
3.425	46131.00	
3.429	47992.00	
3.434	47349.00	
3.438	46453.00	
3.442	48773.00	
3.447	46874.00	
3.451	47750.00	
3.455	44937.00	
3.460	47271.00	
3.464	46341.00	
3.468	48772.00	
3.473	47220.00	
3.477	45927.00	
3.481	47259.00	
3.486	45292.00	
3.490	46265.00	
3.494	48776.00	
3.499	46524.00	
3.503	45922.00	
3.507	47631.00	
3.512	47094.00	
3.516	47294.00	
3.520	46426.00	
3.525	46048.00	
3.529	48000.00	
3.533	47788.00	
3.538	46422.00	
3.542	47103.00	
3.546	46553.00	
3.551	46581.00	
3.555	46629.00	
3.559	45566.00	
3.564	48460.00	
3.568	45745.00	
3.572	46986.00	
3.577	46682.00	
3.581	46346.00	
3.585	46746.00	
3.590	46929.00	
3.594	45169.00	
3.598	46962.00	
3.603	45279.00	
3.607	45662.00	
3.611	44652.00	
3.616	44912.00	
3.620	47873.00	
3.624	46127.00	
3.629	45052.00	
3.633	46947.00	
3.637	46731.00	
3.642	45714.00	
3.646	46827.00	
3.650	45613.00	
3.655	46676.00	
3.659	44502.00	
3.663	45394.00	
3.668	47047.00	
3.672	44616.00	
3.676	47340.00	
3.681	45880.00	
3.685	45660.00	
3.689	44574.00	
3.694	45396.00	
3.698	43671.00	
3.702	46058.00	
3.707	46188.00	
3.711	45743.00	
3.715	47030.00	
3.720	44572.00	
3.724	46959.00	
3.728	45659.00	
3.733	46209.00	
3.737	48990.00	
3.741	84661.00	
3.746	204256.00	
3.750	357888.00	
3.754	363926.00	
3.759	237665.00	
3.763	118606.00	
3.767	67202.00	
3.772	51995.00	
3.776	48807.00	
3.780	49096.00	
3.785	48276.00	
3.789	47474.00	
3.793	46707.00	
3.798	47346.00	
3.802	46640.00	
3.806	44796.00	
3.811	47281.00	
3.815	46370.00	
3.819	45917.00	
3.824	43374.00	
3.828	44822.00	
3.833	45303.00	
3.837	47084.00	
3.841	45053.00	
3.846	44335.00	
3.850	46602.00	
3.854	47639.00	
3.859	44843.00	
3.863	45914.00	
3.867	45434.00	
3.872	46113.00	
3.876	45064.00	
3.880	44760.00	
3.885	44810.00	
3.889	44438.00	
3.893	46684.00	
3.898	43824.00	
3.902	45422.00	
3.906	46351.00	
3.911	44554.00	
3.915	46031.00	
3.919	44436.00	
3.924	45689.00	
3.928	43912.00	
3.932	44458.00	
3.937	45781.00	
3.941	44105.00	
3.945	45854.00	
3.950	46168.00	
3.954	44523.00	
3.958	45519.00	
3.963	44003.00	
3.967	43700.00	
3.971	45084.00	
3.976	44210.00	
3.980	45118.00	
3.984	46394.00	
3.989	45645.00	
3.993	44244.00	
3.997	44197.00	
4.002	45999.00	
4.006	45286.00	
4.010	44721.00	
4.015	43131.00	
4.019	44924.00	
4.023	44412.00	
4.028	46411.00	
4.032	65098.00	
4.036	121595.00	
4.041	199791.00	
4.045	226772.00	
4.049	166354.00	
4.054	96828.00	
4.058	61001.00	
4.062	57120.00	
4.067	60794.00	
4.071	62869.00	
4.075	55476.00	
4.080	48259.00	
4.084	47335.00	
4.088	46336.00	
4.093	46066.00	
4.097	44911.00	
4.101	45963.00	
4.106	45051.00	
4.110	71796.00	
4.114	266378.00	
4.119	1027604.00	
4.123	2286249.00	
4.127	2633666.00	
4.132	1741456.00	
4.136	691424.00	
4.140	211517.00	
4.145	81422.00	
4.149	57972.00	
4.153	49961.00	
4.158	49458.00	
4.162	46629.00	
4.166	48043.00	
4.171	47877.00	
4.175	46052.00	
4.179	44348.00	
4.184	46601.00	
4.188	46359.00	
4.192	45664.00	
4.197	46650.00	
4.201	48025.00	
4.205	45609.00	
4.210	45553.00	
4.214	45552.00	
4.218	44558.00	
4.223	48279.00	
4.227	55992.00	
4.231	91505.00	
4.236	334832.00	
4.240	1117976.00	
4.244	2001822.00	
4.249	1988066.00	
4.253	1171174.00	
4.257	455605.00	
4.262	152062.00	
4.266	68960.00	
4.270	53021.00	
4.275	51001.00	
4.279	47524.00	
4.283	46981.00	
4.288	46916.00	
4.292	47970.00	
4.296	46737.00	
4.301	45963.00	
4.305	46242.00	
4.309	46686.00	
4.314	44582.00	
4.318	46337.00	
4.322	44960.00	
4.327	44656.00	
4.331	44960.00	
4.335	45750.00	
4.340	45010.00	
4.344	45419.00	
4.348	44630.00	
4.353	43643.00	
4.357	46499.00	
4.361	44507.00	
4.366	42801.00	
4.370	43983.00	
4.374	44760.00	
4.379	45142.00	
4.383	44497.00	
4.387	45351.00	
4.392	45473.00	
4.396	45799.00	
4.400	46178.00	
4.405	51415.00	
4.409	66348.00	
4.413	83890.00	
4.418	87483.00	
4.422	72116.00	
4.426	56494.00	
4.431	50690.00	
4.435	81960.00	
4.439	379534.00	
4.444	1625883.00	
4.448	3832705.00	
4.452	4757651.00	
4.457	3462880.00	
4.461	1492839.00	
4.465	407627.00	
4.470	116597.00	
4.474	63833.00	
4.478	56963.00	
4.483	54757.00	
4.487	51533.00	
4.491	51153.00	
4.496	50105.00	
4.500	49691.00	
4.504	53549.00	
4.509	85224.00	
4.513	134838.00	
4.517	147986.00	
4.522	113964.00	
4.526	79954.00	
4.530	67227.00	
4.535	58806.00	
4.539	54191.00	
4.543	52444.00	
4.548	50389.00	
4.552	49879.00	
4.556	48610.00	
4.561	49764.00	
4.565	49187.00	
4.570	49073.00	
4.574	48412.00	
4.578	48441.00	
4.583	48328.00	
4.587	47549.00	
4.591	46588.00	
4.596	47582.00	
4.600	47020.00	
4.604	46191.00	
4.609	47302.00	
4.613	47254.00	
4.617	47963.00	
4.622	48191.00	
4.626	49484.00	
4.630	48087.00	
4.635	54156.00	
4.639	52940.00	
4.643	51019.00	
4.648	49271.00	
4.652	48850.00	
4.656	47433.00	
4.661	46310.00	
4.665	56744.00	
4.669	156397.00	
4.674	560955.00	
4.678	1288829.00	
4.682	1469104.00	
4.687	900017.00	
4.691	349212.00	
4.695	115139.00	
4.700	63968.00	
4.704	55118.00	
4.708	49496.00	
4.713	49676.00	
4.717	50271.00	
4.721	51424.00	
4.726	53754.00	
4.730	48218.00	
4.734	47577.00	
4.739	47892.00	
4.743	46602.00	
4.747	45590.00	
4.752	46437.00	
4.756	48129.00	
4.760	47190.00	
4.765	48833.00	
4.769	75704.00	
4.773	154108.00	
4.778	219622.00	
4.782	181784.00	
4.786	114867.00	
4.791	214363.00	
4.795	855006.00	
4.799	2036595.00	
4.804	2418657.00	
4.808	1642372.00	
4.812	1028255.00	
4.817	656244.00	
4.821	332955.00	
4.825	146449.00	
4.830	78768.00	
4.834	62242.00	
4.838	57744.00	
4.843	58322.00	
4.847	61825.00	
4.851	64071.00	
4.856	62519.00	
4.860	61928.00	
4.864	58755.00	
4.869	57892.00	
4.873	53822.00	
4.877	52807.00	
4.882	49765.00	
4.886	50561.00	
4.890	47557.00	
4.895	47948.00	
4.899	48532.00	
4.903	47486.00	
4.908	48588.00	
4.912	47634.00	
4.916	46235.00	
4.921	47555.00	
4.925	46683.00	
4.929	47225.00	
4.934	48712.00	
4.938	48592.00	
4.942	48693.00	
4.947	47462.00	
4.951	47380.00	
4.955	46276.00	
4.960	46012.00	
4.964	44914.00	
4.968	47222.00	
4.973	45956.00	
4.977	46697.00	
4.981	47401.00	
4.986	45661.00	
4.990	45684.00	
4.994	46566.00	
4.999	47334.00	
5.003	51326.00	
5.007	55692.00	
5.012	55369.00	
5.016	52888.00	
5.020	50960.00	
5.025	47179.00	
5.029	47686.00	
5.033	45855.00	
5.038	44846.00	
5.042	44588.00	
5.046	45540.00	
5.051	45179.00	
5.055	44407.00	
5.059	44778.00	
5.064	44043.00	
5.068	44824.00	
5.072	44127.00	
5.077	46933.00	
5.081	44260.00	
5.085	47637.00	
5.090	53313.00	
5.094	55623.00	
5.098	55282.00	
5.103	51882.00	
5.107	48300.00	
5.111	46488.00	
5.116	48960.00	
5.120	48388.00	
5.124	47281.00	
5.129	47208.00	
5.133	47538.00	
5.137	45126.00	
5.142	46970.00	
5.146	45817.00	
5.150	46318.00	
5.155	46185.00	
5.159	45930.00	
5.163	45775.00	
5.168	44566.00	
5.172	44945.00	
5.176	44534.00	
5.181	46751.00	
5.185	47928.00	
5.189	49580.00	
5.194	49543.00	
5.198	62794.00	
5.202	93318.00	
5.207	129674.00	
5.211	122349.00	
5.215	89379.00	
5.220	94947.00	
5.224	259822.00	
5.228	649657.00	
5.233	934022.00	
5.237	690724.00	
5.241	370343.00	
5.246	179427.00	
5.250	102275.00	
5.254	90938.00	
5.259	105824.00	
5.263	113239.00	
5.267	101168.00	
5.272	84968.00	
5.276	77314.00	
5.280	71953.00	
5.285	68398.00	
5.289	62681.00	
5.293	62906.00	
5.298	61804.00	
5.302	61231.00	
5.307	57966.00	
5.311	55416.00	
5.315	55562.00	
5.320	52010.00	
5.324	50598.00	
5.328	49103.00	
5.333	49600.00	
5.337	51105.00	
5.341	49910.00	
5.346	50193.00	
5.350	49630.00	
5.354	45810.00	
5.359	46500.00	
5.363	47789.00	
5.367	51072.00	
5.372	52647.00	
5.376	52698.00	
5.380	50179.00	
5.385	50788.00	
5.389	65536.00	
5.393	102089.00	
5.398	151085.00	
5.402	148268.00	
5.406	107252.00	
5.411	69978.00	
5.415	58251.00	
5.419	52838.00	
5.424	51189.00	
5.428	49002.00	
5.432	49999.00	
5.437	47171.00	
5.441	49940.00	
5.445	52061.00	
5.450	55608.00	
5.454	59733.00	
5.458	67411.00	
5.463	71609.00	
5.467	71134.00	
5.471	62138.00	
5.476	53661.00	
5.480	50152.00	
5.484	49144.00	
5.489	46781.00	
5.493	46110.00	
5.497	47425.00	
5.502	45523.00	
5.506	46521.00	
5.510	47309.00	
5.515	47097.00	
5.519	47510.00	
5.523	46677.00	
5.528	46434.00	
5.532	46557.00	
5.536	49776.00	
5.541	50426.00	
5.545	51398.00	
5.549	51130.00	
5.554	49272.00	
5.558	49924.00	
5.562	52202.00	
5.567	53200.00	
5.571	56781.00	
5.575	66149.00	
5.580	78303.00	
5.584	75696.00	
5.588	65770.00	
5.593	61855.00	
5.597	60299.00	
5.601	77354.00	
5.606	163432.00	
5.610	320041.00	
5.614	398553.00	
5.619	297440.00	
5.623	157914.00	
5.627	92694.00	
5.632	108294.00	
5.636	206251.00	
5.640	308196.00	
5.645	299458.00	
5.649	195600.00	
5.653	111579.00	
5.658	73884.00	
5.662	60242.00	
5.666	53232.00	
5.671	52617.00	
5.675	52748.00	
5.679	51497.00	
5.684	51403.00	
5.688	50160.00	
5.692	48357.00	
5.697	50000.00	
5.701	49785.00	
5.705	48807.00	
5.710	53064.00	
5.714	50783.00	
5.718	48225.00	
5.723	51445.00	
5.727	51076.00	
5.731	53123.00	
5.736	55967.00	
5.740	74087.00	
5.744	98124.00	
5.749	109513.00	
5.753	89342.00	
5.757	68100.00	
5.762	59239.00	
5.766	52881.00	
5.770	48378.00	
5.775	47857.00	
5.779	47503.00	
5.783	46414.00	
5.788	49881.00	
5.792	62904.00	
5.796	86202.00	
5.801	101275.00	
5.805	94499.00	
5.809	74564.00	
5.814	61397.00	
5.818	52493.00	
5.822	48748.00	
5.827	48091.00	
5.831	49386.00	
5.835	48536.00	
5.840	46641.00	
5.844	49345.00	
5.848	53444.00	
5.853	53595.00	
5.857	55612.00	
5.861	55702.00	
5.866	60876.00	
5.870	78236.00	
5.874	101293.00	
5.879	109790.00	
5.883	96699.00	
5.887	80438.00	
5.892	69467.00	
5.896	65097.00	
5.900	59416.00	
5.905	55224.00	
5.909	55962.00	
5.913	53277.00	
5.918	52214.00	
5.922	53624.00	
5.926	56542.00	
5.931	64665.00	
5.935	68345.00	
5.939	64816.00	
5.944	58596.00	
5.948	53216.00	
5.952	51115.00	
5.957	49085.00	
5.961	51675.00	
5.965	48889.00	
5.970	48690.00	
5.974	48018.00	
5.978	47621.00	
5.983	46658.00	
5.987	46751.00	
5.991	47898.00	
5.996	45094.00	
6.000	45627.00	
6.004	45337.00	
6.009	46877.00	
6.013	46133.00	
6.017	45708.00	
6.022	47364.00	
6.026	52904.00	
6.031	62810.00	
6.035	66713.00	
6.039	61263.00	
6.043	51861.00	
6.048	48271.00	
6.052	48722.00	
6.057	48249.00	
6.061	46543.00	
6.065	46839.00	
6.070	46487.00	
6.074	46893.00	
6.078	47500.00	
6.083	46540.00	
6.087	47297.00	
6.091	49382.00	
6.096	49303.00	
6.100	51251.00	
6.104	48854.00	
6.109	48436.00	
6.113	48197.00	
6.117	44622.00	
6.122	45361.00	
6.126	45540.00	
6.130	46059.00	
6.135	45064.00	
6.139	46186.00	
6.143	45014.00	
6.148	44738.00	
6.152	47159.00	
6.156	46122.00	
6.161	45696.00	
6.165	44657.00	
6.169	45327.00	
6.174	43931.00	
6.178	44328.00	
6.182	44996.00	
6.187	45268.00	
6.191	47331.00	
6.195	44285.00	
6.200	44421.00	
6.204	45389.00	
6.208	47302.00	
6.213	50520.00	
6.217	45832.00	
6.221	45272.00	
6.226	45841.00	
6.230	47175.00	
6.234	45546.00	
6.239	44907.00	
6.243	44577.00	
6.247	45703.00	
6.252	47309.00	
6.256	61704.00	
6.260	126619.00	
6.265	192029.00	
6.269	189161.00	
6.273	137705.00	
6.278	100583.00	
6.282	78977.00	
6.286	65373.00	
6.291	59228.00	
6.295	55683.00	
6.299	50802.00	
6.304	51340.00	
6.308	49628.00	
6.312	48749.00	
6.317	48066.00	
6.321	50504.00	
6.325	49664.00	
6.330	51181.00	
6.334	49934.00	
6.338	47473.00	
6.343	48255.00	
6.347	45423.00	
6.351	45868.00	
6.356	46484.00	
6.360	46119.00	
6.364	46151.00	
6.369	47091.00	
6.373	46988.00	
6.377	47118.00	
6.382	48066.00	
6.386	48637.00	
6.390	51388.00	
6.395	50581.00	
6.399	58902.00	
6.403	159568.00	
6.408	948089.00	
6.412	3668608.00	
6.416	7298747.00	
6.421	7832983.00	
6.425	4617447.00	
6.429	1403383.00	
6.434	307755.00	
6.438	106198.00	
6.442	75461.00	
6.447	72630.00	
6.451	69014.00	
6.455	65779.00	
6.460	61449.00	
6.464	58541.00	
6.468	55508.00	
6.473	57288.00	
6.477	57516.00	
6.481	53400.00	
6.486	55467.00	
6.490	55525.00	
6.494	60114.00	
6.499	56718.00	
6.503	52481.00	
6.507	50344.00	
6.512	49048.00	
6.516	50003.00	
6.520	48757.00	
6.525	47207.00	
6.529	46401.00	
6.533	46943.00	
6.538	46958.00	
6.542	47696.00	
6.546	46082.00	
6.551	48989.00	
6.555	47701.00	
6.559	46009.00	
6.564	46202.00	
6.568	48197.00	
6.572	47898.00	
6.577	45926.00	
6.581	45634.00	
6.585	45225.00	
6.590	46124.00	
6.594	46406.00	
6.598	47377.00	
6.603	44900.00	
6.607	47300.00	
6.611	45709.00	
6.616	47332.00	
6.620	45288.00	
6.624	45861.00	
6.629	46495.00	
6.633	46876.00	
6.637	48624.00	
6.642	50337.00	
6.646	53500.00	
6.650	49903.00	
6.655	53259.00	
6.659	54228.00	
6.663	54056.00	
6.668	51939.00	
6.672	49971.00	
6.676	49714.00	
6.681	48893.00	
6.685	46387.00	
6.689	47416.00	
6.694	45372.00	
6.698	45587.00	
6.702	46434.00	
6.707	44287.00	
6.711	46148.00	
6.715	45734.00	
6.720	44965.00	
6.724	45916.00	
6.728	44834.00	
6.733	46278.00	
6.737	46094.00	
6.741	47542.00	
6.746	46837.00	
6.750	51947.00	
6.754	59646.00	
6.759	69149.00	
6.763	67400.00	
6.768	54667.00	
6.772	49701.00	
6.776	46251.00	
6.781	45610.00	
6.785	46684.00	
6.789	45947.00	
6.794	45687.00	
6.798	44486.00	
6.802	44655.00	
6.807	49671.00	
6.811	60084.00	
6.815	76744.00	
6.820	82198.00	
6.824	70103.00	
6.828	54416.00	
6.833	47216.00	
6.837	46343.00	
6.841	47096.00	
6.846	45979.00	
6.850	47516.00	
6.854	46547.00	
6.859	46324.00	
6.863	44904.00	
6.867	46334.00	
6.872	43548.00	
6.876	44820.00	
6.880	45109.00	
6.885	46742.00	
6.889	44546.00	
6.893	45918.00	
6.898	48907.00	
6.902	53580.00	
6.906	57573.00	
6.911	60963.00	
6.915	55218.00	
6.919	50834.00	
6.924	50239.00	
6.928	50501.00	
6.932	46809.00	
6.937	47922.00	
6.941	48128.00	
6.945	48695.00	
6.950	51530.00	
6.954	51782.00	
6.958	49608.00	
6.963	46302.00	
6.967	44825.00	
6.971	45277.00	
6.976	45680.00	
6.980	44957.00	
6.984	45019.00	
6.989	46446.00	
6.993	45990.00	
6.997	46498.00	
7.002	47811.00	
7.006	46040.00	
7.010	45456.00	
7.015	45847.00	
7.019	43595.00	
7.023	45429.00	
7.028	48053.00	
7.032	54682.00	
7.036	60018.00	
7.041	55415.00	
7.045	46910.00	
7.049	45226.00	
7.054	44952.00	
7.058	44851.00	
7.062	45125.00	
7.067	44978.00	
7.071	45085.00	
7.075	45758.00	
7.080	47565.00	
7.084	48012.00	
7.088	48542.00	
7.093	51517.00	
7.097	54912.00	
7.101	54199.00	
7.106	49198.00	
7.110	47615.00	
7.114	47922.00	
7.119	46819.00	
7.123	45741.00	
7.127	47001.00	
7.132	56485.00	
7.136	94511.00	
7.140	172309.00	
7.145	233453.00	
7.149	189158.00	
7.153	115244.00	
7.158	65374.00	
7.162	50761.00	
7.166	45285.00	
7.171	47159.00	
7.175	48592.00	
7.179	53679.00	
7.184	67073.00	
7.188	92703.00	
7.192	103845.00	
7.197	87038.00	
7.201	62427.00	
7.205	51206.00	
7.210	50787.00	
7.214	51484.00	
7.218	50224.00	
7.223	47806.00	
7.227	46930.00	
7.231	46718.00	
7.236	46302.00	
7.240	46519.00	
7.244	45761.00	
7.249	45791.00	
7.253	46705.00	
7.257	45482.00	
7.262	47205.00	
7.266	50482.00	
7.270	55152.00	
7.275	55357.00	
7.279	52371.00	
7.283	47841.00	
7.288	46055.00	
7.292	47297.00	
7.296	46347.00	
7.301	45528.00	
7.305	47458.00	
7.309	43985.00	
7.314	44504.00	
7.318	45467.00	
7.322	46307.00	
7.327	46689.00	
7.331	47544.00	
7.335	45143.00	
7.340	45619.00	
7.344	45362.00	
7.348	45525.00	
7.353	46840.00	
7.357	50529.00	
7.361	58301.00	
7.366	70377.00	
7.370	75802.00	
7.374	71204.00	
7.379	58643.00	
7.383	57621.00	
7.387	55702.00	
7.392	53631.00	
7.396	48499.00	
7.400	49111.00	
7.405	44028.00	
7.409	45252.00	
7.413	46888.00	
7.418	45891.00	
7.422	46509.00	
7.426	45307.00	
7.431	47640.00	
7.435	46044.00	
7.439	43554.00	
7.444	45121.00	
7.448	47970.00	
7.452	47891.00	
7.457	46863.00	
7.461	46036.00	
7.465	44499.00	
7.470	45577.00	
7.474	46972.00	
7.478	50898.00	
7.483	46971.00	
7.487	46680.00	
7.491	47910.00	
7.496	46470.00	
7.500	47338.00	
7.505	46863.00	
7.509	48042.00	
7.513	51804.00	
7.518	58222.00	
7.522	57062.00	
7.526	54570.00	
7.531	48305.00	
7.535	49070.00	
7.539	46164.00	
7.544	45922.00	
7.548	44615.00	
7.552	45449.00	
7.557	52011.00	
7.561	75958.00	
7.565	117248.00	
7.570	124435.00	
7.574	95581.00	
7.578	68522.00	
7.583	53872.00	
7.587	49180.00	
7.591	47479.00	
7.596	48026.00	
7.600	49961.00	
7.604	52307.00	
7.609	53809.00	
7.613	52139.00	
7.617	47836.00	
7.622	47516.00	
7.626	46180.00	
7.630	47432.00	
7.635	48179.00	
7.639	47294.00	
7.643	47927.00	
7.648	49024.00	
7.652	50990.00	
7.656	48736.00	
7.661	46898.00	
7.665	44209.00	
7.669	46242.00	
7.674	48574.00	
7.678	49620.00	
7.682	47693.00	
7.687	46147.00	
7.691	46711.00	
7.695	45919.00	
7.700	46400.00	
7.704	47011.00	
7.708	45256.00	
7.713	46096.00	
7.717	44292.00	
7.721	46478.00	
7.726	47322.00	
7.730	50422.00	
7.734	50499.00	
7.739	47676.00	
7.743	45889.00	
7.747	43979.00	
7.752	44308.00	
7.756	45057.00	
7.760	44716.00	
7.765	45329.00	
7.769	45621.00	
7.773	45941.00	
7.778	45856.00	
7.782	46181.00	
7.786	44009.00	
7.791	45166.00	
7.795	44405.00	
7.799	44205.00	
7.804	44893.00	
7.808	45125.00	
7.812	45343.00	
7.817	45653.00	
7.821	46884.00	
7.825	46007.00	
7.830	45842.00	
7.834	48219.00	
7.838	45921.00	
7.843	44730.00	
7.847	44255.00	
7.851	44627.00	
7.856	45511.00	
7.860	45849.00	
7.864	45498.00	
7.869	44757.00	
7.873	45196.00	
7.877	46425.00	
7.882	46505.00	
7.886	44271.00	
7.890	46619.00	
7.895	45957.00	
7.899	45404.00	
7.903	45598.00	
7.908	44420.00	
7.912	46474.00	
7.916	44626.00	
7.921	44108.00	
7.925	44214.00	
7.929	45267.00	
7.934	45866.00	
7.938	44613.00	
7.942	46222.00	
7.947	45631.00	
7.951	44841.00	
7.955	44974.00	
7.960	44204.00	
7.964	44924.00	
7.968	44842.00	
7.973	44213.00	
7.977	43410.00	
7.981	45874.00	
7.986	45529.00	
7.990	44732.00	
7.994	46184.00	
7.999	44515.00	
8.003	44359.00	
8.007	44567.00	
8.012	44671.00	
8.016	45086.00	
8.020	46289.00	
8.025	46337.00	
8.029	46734.00	
8.033	47407.00	
8.038	48968.00	
8.042	46548.00	
8.046	44738.00	
8.051	45739.00	
8.055	44001.00	
8.059	45203.00	
8.064	44419.00	
8.068	44244.00	
8.072	46275.00	
8.077	44166.00	
8.081	46049.00	
8.085	46967.00	
8.090	43744.00	
8.094	45672.00	
8.098	44379.00	
8.103	45165.00	
8.107	44759.00	
8.111	45534.00	
8.116	44279.00	
8.120	45095.00	
8.124	46313.00	
8.129	46490.00	
8.133	44394.00	
8.137	46082.00	
8.142	46198.00	
8.146	46153.00	
8.150	48699.00	
8.155	47668.00	
8.159	47147.00	
8.163	47566.00	
8.168	46643.00	
8.172	47008.00	
8.176	45951.00	
8.181	48368.00	
8.185	50637.00	
8.189	49379.00	
8.194	46064.00	
8.198	44031.00	
8.202	45490.00	
8.207	44703.00	
8.211	45720.00	
8.215	45028.00	
8.220	45066.00	
8.224	44317.00	
8.229	45178.00	
8.233	45387.00	
8.237	47015.00	
8.242	46485.00	
8.246	48546.00	
8.250	47510.00	
8.255	46533.00	
8.259	44933.00	
8.263	45355.00	
8.268	45831.00	
8.272	44756.00	
8.276	46323.00	
8.281	45002.00	
8.285	45886.00	
8.289	46002.00	
8.294	44839.00	
8.298	44224.00	
8.302	45507.00	
8.307	45714.00	
8.311	46929.00	
8.315	44883.00	
8.320	45800.00	
8.324	45432.00	
8.328	45839.00	
8.333	45539.00	
8.337	47053.00	
8.341	46534.00	
8.346	46946.00	
8.350	46711.00	
8.354	45796.00	
8.359	46011.00	
8.363	45162.00	
8.367	45348.00	
8.372	45429.00	
8.376	44132.00	
8.380	44817.00	
8.385	45786.00	
8.389	45225.00	
8.393	45342.00	
8.398	45023.00	
8.402	44957.00	
8.406	45716.00	
8.411	45034.00	
8.415	45388.00	
8.419	44154.00	
8.424	46795.00	
8.428	46051.00	
8.432	45262.00	
8.437	46594.00	
8.441	44582.00	
8.445	44540.00	
8.450	47099.00	
8.454	44685.00	
8.458	46731.00	
8.463	45658.00	
8.467	47200.00	
8.471	45868.00	
8.476	46502.00	
8.480	47365.00	
8.484	46693.00	
8.489	46037.00	
8.493	45191.00	
8.497	44710.00	
8.502	44922.00	
8.506	45024.00	
8.510	46551.00	
8.515	46795.00	
8.519	45125.00	
8.523	45815.00	
8.528	45632.00	
8.532	46131.00	
8.536	46014.00	
8.541	47051.00	
8.545	44955.00	
8.549	46209.00	
8.554	45947.00	
8.558	46053.00	
8.562	46245.00	
8.567	46262.00	
8.571	45906.00	
8.575	44764.00	
8.580	45953.00	
8.584	46573.00	
8.588	45508.00	
8.593	46489.00	
8.597	46453.00	
8.601	44616.00	
8.606	43700.00	
8.610	45405.00	
8.614	46903.00	
8.619	46885.00	
8.623	45094.00	
8.627	47657.00	
8.632	46618.00	
8.636	47746.00	
8.640	46965.00	
8.645	45633.00	
8.649	45524.00	
8.653	45616.00	
8.658	46532.00	
8.662	46614.00	
8.666	45868.00	
8.671	47825.00	
8.675	45938.00	
8.679	46930.00	
8.684	45343.00	
8.688	46780.00	
8.692	45744.00	
8.697	45540.00	
8.701	47758.00	
8.705	46443.00	
8.710	46176.00	
8.714	46792.00	
8.718	47174.00	
8.723	46572.00	
8.727	46126.00	
8.731	44543.00	
8.736	46700.00	
8.740	45051.00	
8.744	47847.00	
8.749	45868.00	
8.753	46720.00	
8.757	45718.00	
8.762	47102.00	
8.766	45522.00	
8.770	45130.00	
8.775	46537.00	
8.779	46243.00	
8.783	47106.00	
8.788	45587.00	
8.792	44564.00	
8.796	48206.00	
8.801	45872.00	
8.805	44923.00	
8.809	45084.00	
8.814	46452.00	
8.818	45871.00	
8.822	46191.00	
8.827	46613.00	
8.831	46547.00	
8.835	46202.00	
8.840	45942.00	
8.844	45579.00	
8.848	45742.00	
8.853	45190.00	
8.857	48240.00	
8.861	45849.00	
8.866	46379.00	
8.870	47319.00	
8.874	46889.00	
8.879	47560.00	
8.883	45785.00	
8.887	45705.00	
8.892	46130.00	
8.896	46249.00	
8.900	46949.00	
8.905	46950.00	
8.909	46303.00	
8.913	46521.00	
8.918	46295.00	
8.922	45724.00	
8.926	47218.00	
8.931	47006.00	
8.935	45271.00	
8.939	45872.00	
8.944	47490.00	
8.948	46996.00	
8.952	46624.00	
8.957	45955.00	
8.961	43324.00	
8.966	46648.00	
8.970	45554.00	
8.974	46799.00	
8.979	46389.00	
8.983	47584.00	
8.987	46248.00	
8.992	46513.00	
8.996	47044.00	
9.000	47002.00	
9.005	47285.00	
9.009	45405.00	
9.013	45250.00	
9.018	46323.00	
9.022	46605.00	
9.026	46322.00	
9.031	47076.00	
9.035	44734.00	
9.039	45241.00	
9.044	46393.00	
9.048	47143.00	
9.052	45822.00	
9.057	47177.00	
9.061	46418.00	
9.065	45771.00	
9.070	45811.00	
9.074	46861.00	
9.078	46292.00	
9.083	46227.00	
9.087	46029.00	
9.091	45807.00	
9.096	46504.00	
9.100	47048.00	
9.104	47068.00	
9.109	47619.00	
9.113	45749.00	
9.117	46102.00	
9.122	46906.00	
9.126	47465.00	
9.130	46100.00	
9.135	46038.00	
9.139	46291.00	
9.143	45677.00	
9.148	47188.00	
9.152	48176.00	
9.156	46661.00	
9.161	44554.00	
9.165	46348.00	
9.169	46015.00	
9.174	44532.00	
9.178	46687.00	
9.182	45998.00	
9.187	47967.00	
9.191	47729.00	
9.195	47174.00	
9.200	48161.00	
9.204	46182.00	
9.208	46698.00	
9.213	45724.00	
9.217	46367.00	
9.221	47464.00	
9.226	47515.00	
9.230	49061.00	
9.234	47517.00	
9.239	49504.00	
9.243	49734.00	
9.247	51714.00	
9.252	51306.00	
9.256	50920.00	
9.260	52295.00	
9.265	53390.00	
9.269	54117.00	
9.273	53401.00	
9.278	55773.00	
9.282	55013.00	
9.286	56636.00	
9.291	56042.00	
9.295	56377.00	
9.299	58271.00	
9.304	57647.00	
9.308	57363.00	
9.312	56887.00	
9.317	57478.00	
9.321	57502.00	
9.325	57348.00	
9.330	57580.00	
9.334	57079.00	
9.338	58270.00	
9.343	55332.00	
9.347	56289.00	
9.351	55195.00	
9.356	56437.00	
9.360	55567.00	
9.364	55360.00	
9.369	54955.00	
9.373	53613.00	
9.377	54085.00	
9.382	51795.00	
9.386	54233.00	
9.390	53321.00	
9.395	52048.00	
9.399	54726.00	
9.403	52313.00	
9.408	52364.00	
9.412	52141.00	
9.416	51556.00	
9.421	51398.00	
9.425	50251.00	
9.429	49951.00	
9.434	52022.00	
9.438	53285.00	
9.442	51165.00	
9.447	51549.00	
9.451	50474.00	
9.455	49558.00	
9.460	49915.00	
9.464	51204.00	
9.468	51452.00	
9.473	49170.00	
9.477	51080.00	
9.481	51256.00	
9.486	49100.00	
9.490	50153.00	
9.494	50695.00	
9.499	49417.00	
9.503	50226.00	
9.507	49361.00	
9.512	49536.00	
9.516	51413.00	
9.520	51334.00	
9.525	50265.00	
9.529	49040.00	
9.533	49570.00	
9.538	49694.00	
9.542	50277.00	
9.546	49878.00	
9.551	49604.00	
9.555	49322.00	
9.559	50513.00	
9.564	52389.00	
9.568	49287.00	
9.572	49508.00	
9.577	50045.00	
9.581	49774.00	
9.585	49565.00	
9.590	50734.00	
9.594	50529.00	
9.598	50270.00	
9.603	49799.00	
9.607	50945.00	
9.611	48318.00	
9.616	50236.00	
9.620	50794.00	
9.624	49551.00	
9.629	51542.00	
9.633	50514.00	
9.637	49186.00	
9.642	50100.00	
9.646	50868.00	
9.650	49323.00	
9.655	50222.00	
9.659	50131.00	
9.663	50925.00	
9.668	48902.00	
9.672	49169.00	
9.676	48844.00	
9.681	50304.00	
9.685	50011.00	
9.689	48955.00	
9.694	51438.00	
9.698	48268.00	
9.703	49121.00	
9.707	49381.00	
9.711	50414.00	
9.716	49565.00	
9.720	50718.00	
9.724	50017.00	
9.729	49256.00	
9.733	48818.00	
9.737	48415.00	
9.742	48095.00	
9.746	49394.00	
9.750	48770.00	
9.755	49905.00	
9.759	49524.00	
9.763	50299.00	
9.768	49481.00	
9.772	49895.00	
9.776	50920.00	
9.781	51601.00	
9.785	49791.00	
9.789	50886.00	
9.794	50270.00	
9.798	51949.00	
9.802	50958.00	
9.807	52411.00	
9.811	50382.00	
9.815	50688.00	
9.820	50815.00	
9.824	48837.00	
9.828	49100.00	
9.833	49280.00	
9.837	49841.00	
9.841	50442.00	
9.846	50289.00	
9.850	49371.00	
9.854	48240.00	
9.859	49552.00	
9.863	47912.00	
9.867	48054.00	
9.872	47648.00	
9.876	49784.00	
9.880	49429.00	
9.885	48851.00	
9.889	51522.00	
9.893	49687.00	
9.898	50081.00	
9.902	50959.00	
9.906	48483.00	
9.911	50375.00	
9.915	50078.00	
9.919	51353.00	
9.924	49366.00	
9.928	48395.00	
9.932	50271.00	
9.937	49464.00	
9.941	51702.00	
9.945	49950.00	
9.950	51721.00	
9.954	48681.00	
9.958	49321.00	
9.963	50640.00	
9.967	49937.00	
9.971	49081.00	
9.976	49918.00	
9.980	49343.00	
9.984	49578.00	
9.989	51031.00	
9.993	50557.00	
9.997	48200.00	
10.002	52031.00	
10.006	53455.00	
10.010	49492.00	
10.015	51358.00	
10.019	53271.00	
10.023	54050.00	
10.028	50372.00	
10.032	52203.00	
10.036	52023.00	
10.041	49693.00	
10.045	50750.00	
10.049	51363.00	
10.054	51528.00	
10.058	49749.00	
10.062	51671.00	
10.067	49185.00	
10.071	48480.00	
10.075	51513.00	
10.080	49446.00	
10.084	50834.00	
10.088	50442.00	
10.093	49363.00	
10.097	51228.00	
10.101	50000.00	
10.106	49774.00	
10.110	50488.00	
10.114	49555.00	
10.119	50853.00	
10.123	52219.00	
10.127	49612.00	
10.132	49406.00	
10.136	50857.00	
10.140	52090.00	
10.145	51090.00	
10.149	50286.00	
10.153	51303.00	
10.158	49363.00	
10.162	52627.00	
10.166	50759.00	
10.171	51601.00	
10.175	50025.00	
10.179	49181.00	
10.184	50567.00	
10.188	50023.00	
10.192	48913.00	
10.197	51145.00	
10.201	51667.00	
10.205	51208.00	
10.210	49353.00	
10.214	49495.00	
10.218	50679.00	
10.223	52010.00	
10.227	51536.00	
10.231	50698.00	
10.236	53477.00	
10.240	52257.00	
10.244	50941.00	
10.249	50392.00	
10.253	52121.00	
10.257	52927.00	
10.262	49907.00	
10.266	51631.00	
10.270	50583.00	
10.275	51726.00	
10.279	52253.00	
10.283	50847.00	
10.288	52266.00	
10.292	52080.00	
10.296	52931.00	
10.301	53039.00	
10.305	51261.00	
10.309	51705.00	
10.314	52229.00	
10.318	52602.00	
10.322	52404.00	
10.327	52643.00	
10.331	50828.00	
10.335	51815.00	
10.340	52367.00	
10.344	52489.00	
10.348	52461.00	
10.353	51795.00	
10.357	50817.00	
10.361	52210.00	
10.366	51550.00	
10.370	51017.00	
10.374	50843.00	
10.379	50593.00	
10.383	51728.00	
10.387	51078.00	
10.392	54073.00	
10.396	52395.00	
10.400	54448.00	
10.405	52033.00	
10.409	52203.00	
10.413	52744.00	
10.418	53584.00	
10.422	51435.00	
10.427	52516.00	
10.431	51573.00	
10.435	51332.00	
10.440	51677.00	
10.444	52487.00	
10.448	52959.00	
10.453	52261.00	
10.457	52110.00	
10.461	51957.00	
10.466	54135.00	
10.470	51116.00	
10.474	52890.00	
10.479	51970.00	
10.483	53765.00	
10.487	51796.00	
10.492	50110.00	
10.496	52070.00	
10.500	51030.00	
10.505	53331.00	
10.509	52745.00	
10.513	51534.00	
10.518	51578.00	
10.522	52129.00	
10.526	52335.00	
10.531	53404.00	
10.535	54247.00	
10.539	56863.00	
10.544	57494.00	
10.548	58214.00	
10.552	56350.00	
10.557	53512.00	
10.561	52878.00	
10.565	53166.00	
10.570	53387.00	
10.574	53905.00	
10.578	53247.00	
10.583	53104.00	
10.587	51873.00	
10.591	50908.00	
10.596	53582.00	
10.600	51991.00	
10.604	52011.00	
10.609	51683.00	
10.613	52866.00	
10.617	52537.00	
10.622	53617.00	
10.626	52057.00	
10.630	50245.00	
10.635	54218.00	
10.639	54454.00	
10.643	53792.00	
10.648	53642.00	
10.652	54456.00	
10.656	54657.00	
10.661	54344.00	
10.665	53957.00	
10.669	55515.00	
10.674	53798.00	
10.678	52123.00	
10.682	54774.00	
10.687	53420.00	
10.691	54417.00	
10.695	53727.00	
10.700	56229.00	
10.704	52584.00	
10.708	53089.00	
10.713	53341.00	
10.717	55015.00	
10.721	53778.00	
10.726	55046.00	
10.730	54805.00	
10.734	54027.00	
10.739	52634.00	
10.743	54064.00	
10.747	54157.00	
10.752	53340.00	
10.756	55208.00	
10.760	54468.00	
10.765	54066.00	
10.769	54842.00	
10.773	54108.00	
10.778	54634.00	
10.782	53038.00	
10.786	54048.00	
10.791	56262.00	
10.795	54868.00	
10.799	55920.00	
10.804	55389.00	
10.808	54714.00	
10.812	57296.00	
10.817	55556.00	
10.821	54560.00	
10.825	55094.00	
10.830	53090.00	
10.834	55791.00	
10.838	53442.00	
10.843	56839.00	
10.847	56254.00	
10.851	55486.00	
10.856	55336.00	
10.860	55353.00	
10.864	56629.00	
10.869	55177.00	
10.873	56446.00	
10.877	55123.00	
10.882	56410.00	
10.886	54102.00	
10.890	54098.00	
10.895	56062.00	
10.899	55991.00	
10.903	55560.00	
10.908	54856.00	
10.912	54254.00	
10.916	56238.00	
10.921	56688.00	
10.925	56729.00	
10.929	57086.00	
10.934	56161.00	
10.938	56299.00	
10.942	56152.00	
10.947	58734.00	
10.951	57164.00	
10.955	58333.00	
10.960	55772.00	
10.964	56356.00	
10.968	56609.00	
10.973	57694.00	
10.977	57441.00	
10.981	57251.00	
10.986	59091.00	
10.990	58029.00	
10.994	59610.00	
10.999	57848.00	
11.003	60132.00	
11.007	61284.00	
11.012	62483.00	
11.016	61029.00	
11.020	61468.00	
11.025	59384.00	
11.029	58704.00	
11.033	57711.00	
11.038	57781.00	
11.042	57998.00	
11.046	59803.00	
11.051	58464.00	
11.055	59436.00	
11.059	58582.00	
11.064	58578.00	
11.068	57115.00	
11.072	57084.00	
11.077	59214.00	
11.081	57769.00	
11.085	58666.00	
11.090	57442.00	
11.094	57183.00	
11.098	59130.00	
11.103	58878.00	
11.107	57832.00	
11.111	58752.00	
11.116	58914.00	
11.120	59776.00	
11.124	59845.00	
11.129	58200.00	
11.133	59097.00	
11.137	59563.00	
11.142	60508.00	
11.146	60568.00	
11.150	60723.00	
11.155	59915.00	
11.159	59716.00	
11.164	60201.00	
11.168	58730.00	
11.172	61334.00	
11.177	59982.00	
11.181	58198.00	
11.185	59612.00	
11.190	61026.00	
11.194	59238.00	
11.198	59430.00	
11.203	59282.00	
11.207	59241.00	
11.211	60645.00	
11.216	58523.00	
11.220	60666.00	
11.224	59590.00	
11.229	59586.00	
11.233	60854.00	
11.237	60329.00	
11.242	61613.00	
11.246	60143.00	
11.250	59001.00	
11.255	60817.00	
11.259	61447.00	
11.263	59910.00	
11.268	61834.00	
11.272	61258.00	
11.276	60529.00	
11.281	60684.00	
11.285	61740.00	
11.289	60784.00	
11.294	62326.00	
11.298	62199.00	
11.302	64027.00	
11.307	62168.00	
11.311	64309.00	
11.315	62874.00	
11.320	63817.00	
11.324	62711.00	
11.328	62978.00	
11.333	63703.00	
11.337	61811.00	
11.341	61830.00	
11.346	62238.00	
11.350	64093.00	
11.354	62105.00	
11.359	63027.00	
11.363	61237.00	
11.367	62774.00	
11.372	64766.00	
11.376	63419.00	
11.380	64926.00	
11.385	64112.00	
11.389	65098.00	
11.393	64924.00	
11.398	64383.00	
11.402	65076.00	
11.406	63442.00	
11.411	64793.00	
11.415	63355.00	
11.419	63687.00	
11.424	63524.00	
11.428	64512.00	
11.432	64211.00	
11.437	66514.00	
11.441	67874.00	
11.445	69193.00	
11.450	71950.00	
11.454	71432.00	
11.458	66803.00	
11.463	68274.00	
11.467	65816.00	
11.471	65386.00	
11.476	66062.00	
11.480	70336.00	
11.484	66722.00	
11.489	67189.00	
11.493	66626.00	
11.497	66014.00	
11.502	64295.00	
11.506	65966.00	
11.510	66043.00	
11.515	66128.00	
11.519	68173.00	
11.523	67268.00	
11.528	68211.00	
11.532	66727.00	
11.536	66708.00	
11.541	66724.00	
11.545	68602.00	
11.549	66354.00	
11.554	64773.00	
11.558	66777.00	
11.562	68857.00	
11.567	70444.00	
11.571	70100.00	
11.575	69708.00	
11.580	68823.00	
11.584	69153.00	
11.588	67963.00	
11.593	69554.00	
11.597	68542.00	
11.601	71645.00	
11.606	69122.00	
11.610	70132.00	
11.614	70380.00	
11.619	71245.00	
11.623	69518.00	
11.627	69586.00	
11.632	70785.00	
11.636	69890.00	
11.640	69819.00	
11.645	71658.00	
11.649	70735.00	
11.653	73261.00	
11.658	72203.00	
11.662	70420.00	
11.666	71797.00	
11.671	72779.00	
11.675	74180.00	
11.679	70268.00	
11.684	74139.00	
11.688	70469.00	
11.692	73420.00	
11.697	73684.00	
11.701	71080.00	
11.705	70234.00	
11.710	75644.00	
11.714	70316.00	
11.718	70460.00	
11.723	72854.00	
11.727	71605.00	
11.731	70964.00	
11.736	71841.00	
11.740	73150.00	
11.744	72531.00	
11.749	72432.00	
11.753	72598.00	
11.757	73965.00	
11.762	72513.00	
11.766	72679.00	
11.770	73632.00	
11.775	73834.00	
11.779	72031.00	
11.783	73751.00	
11.788	73844.00	
11.792	74590.00	
11.796	73372.00	
11.801	72114.00	
11.805	76698.00	
11.809	74811.00	
11.814	76705.00	
11.818	73963.00	
11.822	77197.00	
11.827	75602.00	
11.831	74443.00	
11.835	73412.00	
11.840	74973.00	
11.844	74169.00	
11.848	73876.00	
11.853	76194.00	
11.857	74504.00	
11.861	76622.00	
11.866	81594.00	
11.870	83179.00	
11.874	79317.00	
11.879	79938.00	
11.883	77006.00	
11.887	75648.00	
11.892	76873.00	
11.896	75804.00	
11.901	73066.00	
11.905	77190.00	
11.909	77134.00	
11.914	75797.00	
11.918	74993.00	
11.922	74291.00	
11.927	78251.00	
11.931	78461.00	
11.935	78233.00	
11.940	78569.00	
11.944	78961.00	
11.948	78866.00	
11.953	77967.00	
11.957	76836.00	
11.961	77738.00	
11.966	75481.00	
11.970	76612.00	
11.974	77269.00	
11.979	77896.00	
11.983	78366.00	
11.987	78173.00	
11.992	76919.00	
11.996	76865.00	
12.000	78635.00	
12.005	79238.00	
12.009	80268.00	
12.013	78282.00	
12.018	80393.00	
12.022	76839.00	
12.026	77885.00	
12.031	78382.00	
12.035	78330.00	
12.039	78343.00	
12.044	78903.00	
12.048	79565.00	
12.052	77263.00	
12.057	79764.00	
12.061	78058.00	
12.065	81608.00	
12.070	78104.00	
12.074	77753.00	
12.078	80800.00	
12.083	79911.00	
12.087	78993.00	
12.091	77530.00	
12.096	78967.00	
12.100	79339.00	
12.104	80700.00	
12.109	81375.00	
12.113	81208.00	
12.117	79513.00	
12.122	79508.00	
12.126	78943.00	
12.130	81794.00	
12.135	84350.00	
12.139	80024.00	
12.143	79205.00	
12.148	80140.00	
12.152	81269.00	
12.156	80306.00	
12.161	81264.00	
12.165	82974.00	
12.169	80555.00	
12.174	78812.00	
12.178	81628.00	
12.182	80926.00	
12.187	79555.00	
12.191	80116.00	
12.195	80404.00	
12.200	83148.00	
12.204	81715.00	
12.208	79798.00	
12.213	84606.00	
12.217	82133.00	
12.221	82594.00	
12.226	80492.00	
12.230	82334.00	
12.234	81645.00	
12.239	79732.00	
12.243	82887.00	
12.247	82784.00	
12.252	85927.00	
12.256	85931.00	
12.260	83788.00	
12.265	82321.00	
12.269	80969.00	
12.273	82189.00	
12.278	81772.00	
12.282	81261.00	
12.286	82013.00	
12.291	86081.00	
12.295	84753.00	
12.299	82935.00	
12.304	83370.00	
12.308	85804.00	
12.312	87855.00	
12.317	88830.00	
12.321	86349.00	
12.325	86223.00	
12.330	83668.00	
12.334	82713.00	
12.338	82554.00	
12.343	83756.00	
12.347	84370.00	
12.351	83553.00	
12.356	86145.00	
12.360	81511.00	
12.364	83178.00	
12.369	84900.00	
12.373	82686.00	
12.377	85956.00	
12.382	83902.00	
12.386	82556.00	
12.390	83503.00	
12.395	85002.00	
12.399	85351.00	
12.403	83692.00	
12.408	81583.00	
12.412	85520.00	
12.416	87255.00	
12.421	84645.00	
12.425	81911.00	
12.429	83887.00	
12.434	83460.00	
12.438	84556.00	
12.442	82736.00	
12.447	82894.00	
12.451	84763.00	
12.455	84499.00	
12.460	82319.00	
12.464	84849.00	
12.468	83705.00	
12.473	87271.00	
12.477	84945.00	
12.481	83510.00	
12.486	83510.00	
12.490	86888.00	
12.494	85027.00	
12.499	84813.00	
12.503	84330.00	
12.507	84806.00	
12.512	83972.00	
12.516	85665.00	
12.520	87998.00	
12.525	87713.00	
12.529	86634.00	
12.533	86589.00	
12.538	83295.00	
12.542	85608.00	
12.546	87508.00	
12.551	86969.00	
12.555	84204.00	
12.559	86336.00	
12.564	84492.00	
12.568	88672.00	
12.572	85650.00	
12.577	84630.00	
12.581	87211.00	
12.585	87327.00	
12.590	82040.00	
12.594	85379.00	
12.598	86981.00	
12.603	86203.00	
12.607	88532.00	
12.611	86395.00	
12.616	85287.00	
12.620	86266.00	
12.624	82748.00	
12.629	82029.00	
12.633	86870.00	
12.638	86195.00	
12.642	85774.00	
12.646	86547.00	
12.651	82815.00	
12.655	86809.00	
12.659	87348.00	
12.664	86324.00	
12.668	87698.00	
12.672	84864.00	
12.677	85099.00	
12.681	87445.00	
12.685	86099.00	
12.690	84858.00	
12.694	87942.00	
12.698	84210.00	
12.703	85300.00	
12.707	86591.00	
12.711	87506.00	
12.716	86372.00	
12.720	87221.00	
12.724	83245.00	
12.729	86877.00	
12.733	86006.00	
12.737	86867.00	
12.742	87047.00	
12.746	85785.00	
12.750	85184.00	
12.755	85939.00	
12.759	86100.00	
12.763	87744.00	
12.768	85040.00	
12.772	87172.00	
12.776	86158.00	
12.781	85705.00	
12.785	84653.00	
12.789	86864.00	
12.794	83874.00	
12.798	87385.00	
12.802	86732.00	
12.807	83181.00	
12.811	88658.00	
12.815	88388.00	
12.820	87879.00	
12.824	91355.00	
12.828	90449.00	
12.833	89584.00	
12.837	88782.00	
12.841	89444.00	
12.846	85794.00	
12.850	87025.00	
12.854	87109.00	
12.859	87252.00	
12.863	85563.00	
12.867	87026.00	
12.872	87173.00	
12.876	86864.00	
12.880	86561.00	
12.885	85759.00	
12.889	82780.00	
12.893	86154.00	
12.898	88799.00	
12.902	87357.00	
12.906	86212.00	
12.911	87168.00	
12.915	84706.00	
12.919	85924.00	
12.924	87264.00	
12.928	86040.00	
12.932	86282.00	
12.937	87319.00	
12.941	87745.00	
12.945	85258.00	
12.950	85038.00	
12.954	86162.00	
12.958	85245.00	
12.963	86327.00	
12.967	85664.00	
12.971	85889.00	
12.976	85239.00	
12.980	86450.00	
12.984	86855.00	
12.989	85409.00	
12.993	86966.00	
12.997	84608.00	
13.002	85908.00	
13.006	87741.00	
13.010	85943.00	
13.015	84709.00	
13.019	85830.00	
13.023	85206.00	
13.028	85476.00	
13.032	87926.00	
13.036	85701.00	
13.041	87056.00	
13.045	85436.00	
13.049	88258.00	
13.054	87103.00	
13.058	88264.00	
13.062	85988.00	
13.067	88060.00	
13.071	85197.00	
13.075	84606.00	
13.080	87631.00	
13.084	86617.00	
13.088	86254.00	
13.093	86405.00	
13.097	85730.00	
13.101	87176.00	
13.106	85464.00	
13.110	86849.00	
13.114	85432.00	
13.119	86878.00	
13.123	87111.00	
13.127	87439.00	
13.132	87758.00	
13.136	88435.00	
13.140	87803.00	
13.145	85328.00	
13.149	85784.00	
13.153	84746.00	
13.158	86403.00	
13.162	87709.00	
13.166	88298.00	
13.171	83173.00	
13.175	85924.00	
13.179	86220.00	
13.184	86259.00	
13.188	87892.00	
13.192	84825.00	
13.197	88419.00	
13.201	88419.00	
13.205	88054.00	
13.210	86144.00	
13.214	87695.00	
13.218	84933.00	
13.223	86932.00	
13.227	88934.00	
13.231	88446.00	
13.236	86116.00	
13.240	87303.00	
13.244	88079.00	
13.249	86354.00	
13.253	86925.00	
13.257	86824.00	
13.262	87785.00	
13.266	86651.00	
13.270	84684.00	
13.275	86780.00	
13.279	86909.00	
13.283	84308.00	
13.288	87853.00	
13.292	86955.00	
13.296	86754.00	
13.301	84719.00	
13.305	86872.00	
13.309	89090.00	
13.314	84427.00	
13.318	87831.00	
13.322	87137.00	
13.327	87470.00	
13.331	85146.00	
13.335	89062.00	
13.340	86259.00	
13.344	86311.00	
13.348	86009.00	
13.353	85970.00	
13.357	87448.00	
13.362	86954.00	
13.366	86674.00	
13.370	87164.00	
13.375	87163.00	
13.379	85688.00	
13.383	86865.00	
13.388	85551.00	
13.392	87902.00	
13.396	84538.00	
13.401	88003.00	
13.405	88398.00	
13.409	87412.00	
13.414	88465.00	
13.418	89327.00	
13.422	92767.00	
13.427	88719.00	
13.431	87808.00	
13.435	90723.00	
13.440	86412.00	
13.444	87425.00	
13.448	87066.00	
13.453	86057.00	
13.457	86989.00	
13.461	88914.00	
13.466	89592.00	
13.470	88121.00	
13.474	88371.00	
13.479	86074.00	
13.483	87724.00	
13.487	87295.00	
13.492	86470.00	
13.496	89233.00	
13.500	87984.00	
13.505	85379.00	
13.509	87554.00	
13.513	84886.00	
13.518	88055.00	
13.522	88051.00	
13.526	85987.00	
13.531	86241.00	
13.535	88509.00	
13.539	86578.00	
13.544	89305.00	
13.548	87329.00	
13.552	88582.00	
13.557	88009.00	
13.561	87884.00	
13.565	87110.00	
13.570	87212.00	
13.574	86485.00	
13.578	89136.00	
13.583	88134.00	
13.587	87128.00	
13.591	85922.00	
13.596	87816.00	
13.600	88655.00	
13.604	85706.00	
13.609	88623.00	
13.613	86136.00	
13.617	87847.00	
13.622	85922.00	
13.626	84895.00	
13.630	87399.00	
13.635	86865.00	
13.639	87326.00	
13.643	86388.00	
13.648	87054.00	
13.652	86125.00	
13.656	86829.00	
13.661	83935.00	
13.665	87994.00	
13.669	86702.00	
13.674	87531.00	
13.678	86387.00	
13.682	86150.00	
13.687	87444.00	
13.691	85887.00	
13.695	88914.00	
13.700	86693.00	
13.704	85649.00	
13.708	86050.00	
13.713	85535.00	
13.717	86827.00	
13.721	85527.00	
13.726	87268.00	
13.730	87133.00	
13.734	86517.00	
13.739	89393.00	
13.743	89439.00	
13.747	88856.00	
13.752	86641.00	
13.756	87712.00	
13.760	87556.00	
13.765	85297.00	
13.769	89068.00	
13.773	86841.00	
13.778	88326.00	
13.782	88522.00	
13.786	87263.00	
13.791	87443.00	
13.795	89321.00	
13.799	85599.00	
13.804	86238.00	
13.808	86345.00	
13.812	88283.00	
13.817	85911.00	
13.821	87217.00	
13.825	88676.00	
13.830	84140.00	
13.834	85749.00	
13.838	85293.00	
13.843	87662.00	
13.847	86629.00	
13.851	83269.00	
13.856	89803.00	
13.860	87574.00	
13.864	88986.00	
13.869	87356.00	
13.873	85719.00	
13.877	88918.00	
13.882	88335.00	
13.886	87168.00	
13.890	85729.00	
13.895	86724.00	
13.899	85695.00	
13.903	88808.00	
13.908	85991.00	
13.912	83852.00	
13.916	85532.00	
13.921	83456.00	
13.925	90453.00	
13.929	87001.00	
13.934	85980.00	
13.938	88960.00	
13.942	88781.00	
13.947	88411.00	
13.951	85942.00	
13.955	87378.00	
13.960	87285.00	
13.964	85196.00	
13.968	84541.00	
13.973	88411.00	
13.977	87819.00	
13.981	86335.00	
13.986	90436.00	
13.990	85838.00	
13.994	84460.00	
13.999	84493.00	
14.003	86862.00	
14.007	86754.00	
14.012	87569.00	
14.016	86179.00	
14.020	86551.00	
14.025	88158.00	
14.029	85518.00	
14.033	86486.00	
14.038	87575.00	
14.042	86954.00	
14.046	85640.00	
14.051	89353.00	
14.055	89791.00	
14.059	87023.00	
14.064	88541.00	
14.068	86413.00	
14.072	86797.00	
14.077	88638.00	
14.081	87554.00	
14.085	87743.00	
14.090	85011.00	
14.094	85638.00	
14.099	87253.00	
14.103	90189.00	
14.107	87915.00	
14.112	87091.00	
14.116	87954.00	
14.120	88425.00	
14.125	87951.00	
14.129	89262.00	
14.133	91147.00	
14.138	90822.00	
14.142	90076.00	
14.146	90282.00	
14.151	87564.00	
14.155	88080.00	
14.159	87241.00	
14.164	87502.00	
14.168	89412.00	
14.172	88505.00	
14.177	86424.00	
14.181	87341.00	
14.185	88927.00	
14.190	88148.00	
14.194	86650.00	
14.198	87343.00	
14.203	84473.00	
14.207	86855.00	
14.211	85591.00	
14.216	84759.00	
14.220	86548.00	
14.224	88453.00	
14.229	86628.00	
14.233	86594.00	
14.237	86639.00	
14.242	85553.00	
14.246	87220.00	
14.250	86286.00	
14.255	85201.00	
14.259	88506.00	
14.263	88963.00	
14.268	87776.00	
14.272	88614.00	
14.276	89233.00	
14.281	86205.00	
14.285	88001.00	
14.289	85287.00	
14.294	87991.00	
14.298	86214.00	
14.302	85807.00	
14.307	86658.00	
14.311	87162.00	
14.315	86290.00	
14.320	87155.00	
14.324	87680.00	
14.328	86584.00	
14.333	87237.00	
14.337	87159.00	
14.341	86790.00	
14.346	86064.00	
14.350	89427.00	
14.354	86512.00	
14.359	87685.00	
14.363	87057.00	
14.367	87489.00	
14.372	87262.00	
14.376	86883.00	
14.380	88812.00	
14.385	87818.00	
14.389	89009.00	
14.393	89006.00	
14.398	87505.00	
14.402	86527.00	
14.406	88521.00	
14.411	87100.00	
14.415	87967.00	
14.419	85632.00	
14.424	84272.00	
14.428	86914.00	
14.432	87085.00	
14.437	87118.00	
14.441	88410.00	
14.445	87609.00	
14.450	87113.00	
14.454	87584.00	
14.458	86524.00	
14.463	90727.00	
14.467	87311.00	
14.471	89707.00	
14.476	88896.00	
14.480	86680.00	
14.484	88305.00	
14.489	86670.00	
14.493	86831.00	
14.497	87231.00	
14.502	86534.00	
14.506	89667.00	
14.510	89581.00	
14.515	87827.00	
14.519	85907.00	
14.523	85770.00	
14.528	87303.00	
14.532	85211.00	
14.536	86112.00	
14.541	87441.00	
14.545	87074.00	
14.549	85830.00	
14.554	87882.00	
14.558	88261.00	
14.562	86984.00	
14.567	86541.00	
14.571	88832.00	
14.575	87654.00	
14.580	85012.00	
14.584	85119.00	
14.588	85784.00	
14.593	88857.00	
14.597	86160.00	
14.601	86779.00	
14.606	87396.00	
14.610	87251.00	
14.614	89331.00	
14.619	86776.00	
14.623	88135.00	
14.627	87814.00	
14.632	88172.00	
14.636	89773.00	
14.640	87833.00	
14.645	85371.00	
14.649	86890.00	
14.653	87853.00	
14.658	86701.00	
14.662	87856.00	
14.666	86010.00	
14.671	85050.00	
14.675	87353.00	
14.679	89573.00	
14.684	86239.00	
14.688	84476.00	
14.692	88434.00	
14.697	84130.00	
14.701	85682.00	
14.705	88367.00	
14.710	87875.00	
14.714	85383.00	
14.718	87839.00	
14.723	87900.00	
14.727	87337.00	
14.731	87809.00	
14.736	88294.00	
14.740	85880.00	
14.744	85696.00	
14.749	85963.00	
14.753	85652.00	
14.757	86480.00	
14.762	88081.00	
14.766	87152.00	
14.770	85158.00	
14.775	87937.00	
14.779	89395.00	
14.783	87707.00	
14.788	88768.00	
14.792	89305.00	
14.796	89519.00	
14.801	87572.00	
14.805	86891.00	
14.809	87816.00	
14.814	89254.00	
14.818	85603.00	
14.822	87317.00	
14.827	87754.00	
14.831	87735.00	
14.836	85662.00	
14.840	88014.00	
14.844	86601.00	
14.849	87293.00	
14.853	84267.00	
14.857	87202.00	
14.862	89009.00	
14.866	87402.00	
14.870	86632.00	
14.875	88042.00	
14.879	86447.00	
14.883	87053.00	
14.888	84797.00	
14.892	88911.00	
14.896	89002.00	
14.901	86731.00	
14.905	87708.00	
14.909	89569.00	
14.914	87784.00	
14.918	86428.00	
14.922	88670.00	
14.927	87639.00	
14.931	87461.00	
14.935	86377.00	
14.940	86862.00	
14.944	86698.00	
14.948	89537.00	
14.953	86398.00	
14.957	85504.00	
14.961	86095.00	
14.966	86585.00	
14.970	85555.00	
14.974	88946.00	
14.979	87146.00	
14.983	86838.00	
14.987	83325.00	
14.992	89379.00	
14.996	85322.00	
15.000	89204.00	
15.005	89267.00	
15.009	88965.00	
15.013	87757.00	
15.018	88289.00	
15.022	87055.00	
15.026	90144.00	
15.031	89279.00	
15.035	91018.00	
15.039	88086.00	
15.044	85521.00	
15.048	87944.00	
15.052	86988.00	
15.057	89221.00	
15.061	89305.00	
15.065	85567.00	
15.070	87129.00	
15.074	88631.00	
15.078	86584.00	
15.083	87228.00	
15.087	88844.00	
15.091	88464.00	
15.096	87779.00	
15.100	88081.00	
15.104	84977.00	
15.109	89031.00	
15.113	88828.00	
15.117	87621.00	
15.122	86526.00	
15.126	88047.00	
15.130	85250.00	
15.135	88709.00	
15.139	87166.00	
15.143	88799.00	
15.148	87538.00	
15.152	87129.00	
15.156	88607.00	
15.161	87115.00	
15.165	89217.00	
15.169	88890.00	
15.174	86965.00	
15.178	87828.00	
15.182	85771.00	
15.187	88158.00	
15.191	87410.00	
15.195	86323.00	
15.200	87893.00	
15.204	85700.00	
15.208	85724.00	
15.213	87736.00	
15.217	87912.00	
15.221	88066.00	
15.226	88055.00	
15.230	90423.00	
15.234	87338.00	
15.239	89760.00	
15.243	88726.00	
15.247	87848.00	
15.252	85790.00	
15.256	86671.00	
15.260	86035.00	
15.265	88362.00	
15.269	84659.00	
15.273	87674.00	
15.278	87662.00	
15.282	88115.00	
15.286	83995.00	
15.291	86285.00	
15.295	85191.00	
15.299	90468.00	
15.304	88934.00	
15.308	86748.00	
15.312	85168.00	
15.317	89202.00	
15.321	85861.00	
15.325	86898.00	
15.330	86025.00	
15.334	87700.00	
15.338	86786.00	
15.343	88457.00	
15.347	89410.00	
15.351	86090.00	
15.356	85124.00	
15.360	86914.00	
15.364	86894.00	
15.369	86639.00	
15.373	87753.00	
15.377	86199.00	
15.382	87880.00	
15.386	86825.00	
15.390	87658.00	
15.395	86814.00	
15.399	86726.00	
15.403	86358.00	
15.408	87329.00	
15.412	86466.00	
15.416	87650.00	
15.421	86897.00	
15.425	87369.00	
15.429	87961.00	
15.434	85300.00	
15.438	87068.00	
15.442	90407.00	
15.447	85845.00	
15.451	85390.00	
15.455	89527.00	
15.460	88266.00	
15.464	86889.00	
15.468	89432.00	
15.473	86084.00	
15.477	86725.00	
15.481	87628.00	
15.486	92092.00	
15.490	84295.00	
15.494	84033.00	
15.499	87734.00	
15.503	87468.00	
15.507	87772.00	
15.512	87052.00	
15.516	87194.00	
15.520	88369.00	
15.525	89955.00	
15.529	86941.00	
15.533	86101.00	
15.538	85357.00	
15.542	88905.00	
15.546	86086.00	
15.551	88813.00	
15.555	85852.00	
15.560	86300.00	
15.564	86954.00	
15.568	87734.00	
15.573	88319.00	
15.577	86772.00	
15.581	87542.00	
15.586	86731.00	
15.590	86509.00	
15.594	87760.00	
15.599	90220.00	
15.603	85231.00	
15.607	88145.00	
15.612	87884.00	
15.616	86631.00	
15.620	86708.00	
15.625	86329.00	
15.629	87538.00	
15.633	86127.00	
15.638	88700.00	
15.642	86974.00	
15.646	88091.00	
15.651	89537.00	
15.655	88565.00	
15.659	85556.00	
15.664	87783.00	
15.668	88036.00	
15.672	88306.00	
15.677	88381.00	
15.681	88014.00	
15.685	86218.00	
15.690	87207.00	
15.694	88893.00	
15.698	87947.00	
15.703	87100.00	
15.707	85406.00	
15.711	87076.00	
15.716	85336.00	
15.720	88729.00	
15.724	87299.00	
15.729	87396.00	
15.733	87453.00	
15.737	86653.00	
15.742	87217.00	
15.746	85253.00	
15.750	87533.00	
15.755	86578.00	
15.759	86598.00	
15.763	86340.00	
15.768	89076.00	
15.772	88977.00	
15.776	88636.00	
15.781	86561.00	
15.785	88514.00	
15.789	86609.00	
15.794	88802.00	
15.798	85538.00	
15.802	86978.00	
15.807	88015.00	
15.811	85314.00	
15.815	86549.00	
15.820	85559.00	
15.824	89177.00	
15.828	86004.00	
15.833	88258.00	
15.837	88228.00	
15.841	88429.00	
15.846	85822.00	
15.850	86541.00	
15.854	88174.00	
15.859	86423.00	
15.863	86955.00	
15.867	87790.00	
15.872	86232.00	
15.876	88391.00	
15.880	89330.00	
15.885	88609.00	
15.889	85822.00	
15.893	86210.00	
15.898	87004.00	
15.902	84861.00	
15.906	87171.00	
15.911	86517.00	
15.915	87880.00	
15.919	86521.00	
15.924	89355.00	
15.928	86058.00	
15.932	87919.00	
15.937	85096.00	
15.941	84705.00	
15.945	89026.00	
15.950	84019.00	
15.954	86680.00	
15.958	89355.00	
15.963	87469.00	
15.967	87262.00	
15.971	88379.00	
15.976	85798.00	
15.980	85703.00	
15.984	85929.00	
15.989	89089.00	
15.993	87178.00	
15.997	88011.00	
16.002	85825.00	
16.006	88576.00	
16.010	85820.00	
16.015	85877.00	
16.019	87151.00	
16.023	88377.00	
16.028	84875.00	
16.032	87413.00	
16.036	86044.00	
16.041	87699.00	
16.045	87840.00	
16.049	88007.00	
16.054	88893.00	
16.058	89384.00	
16.062	87892.00	
16.067	88699.00	
16.071	86665.00	
16.075	88040.00	
16.080	86696.00	
16.084	87534.00	
16.088	91078.00	
16.093	87894.00	
16.097	86801.00	
16.101	86866.00	
16.106	87206.00	
16.110	86407.00	
16.114	87591.00	
16.119	85075.00	
16.123	88247.00	
16.127	89188.00	
16.132	87381.00	
16.136	89396.00	
16.140	86570.00	
16.145	85496.00	
16.149	88508.00	
16.153	89371.00	
16.158	87122.00	
16.162	85350.00	
16.166	86998.00	
16.171	89065.00	
16.175	87272.00	
16.179	86355.00	
16.184	89206.00	
16.188	87790.00	
16.192	87348.00	
16.197	89337.00	
16.201	86328.00	
16.205	84002.00	
16.210	87537.00	
16.214	87614.00	
16.218	86247.00	
16.223	85004.00	
16.227	85862.00	
16.231	85329.00	
16.236	85512.00	
16.240	86743.00	
16.244	86169.00	
16.249	88841.00	
16.253	87278.00	
16.257	85686.00	
16.262	87537.00	
16.266	87074.00	
16.270	88889.00	
16.275	84354.00	
16.279	85513.00	
16.283	88687.00	
16.288	85417.00	
16.292	88639.00	
16.297	87675.00	
16.301	86379.00	
16.305	87399.00	
16.310	88935.00	
16.314	86801.00	
16.318	88920.00	
16.323	84618.00	
16.327	85925.00	
16.331	86696.00	
16.336	86632.00	
16.340	87882.00	
16.344	87276.00	
16.349	87062.00	
16.353	87084.00	
16.357	86017.00	
16.362	89303.00	
16.366	89183.00	
16.370	86147.00	
16.375	85440.00	
16.379	86420.00	
16.383	87120.00	
16.388	85459.00	
16.392	88108.00	
16.396	85317.00	
16.401	85519.00	
16.405	87220.00	
16.409	85782.00	
16.414	86684.00	
16.418	87607.00	
16.422	87997.00	
16.427	87942.00	
16.431	87414.00	
16.435	88977.00	
16.440	87507.00	
16.444	85087.00	
16.448	87450.00	
16.453	84450.00	
16.457	87696.00	
16.461	87634.00	
16.466	86613.00	
16.470	85377.00	
16.474	85152.00	
16.479	91042.00	
16.483	86952.00	
16.487	87514.00	
16.492	87612.00	
16.496	86858.00	
16.500	87279.00	
16.505	87786.00	
16.509	85674.00	
16.513	88025.00	
16.518	87341.00	
16.522	86438.00	
16.526	84905.00	
16.531	86328.00	
16.535	87101.00	
16.539	87371.00	
16.544	86324.00	
16.548	88163.00	
16.552	87768.00	
16.557	87887.00	
16.561	87739.00	
16.565	89556.00	
16.570	86525.00	
16.574	88073.00	
16.578	86385.00	
16.583	86140.00	
16.587	86203.00	
16.591	87231.00	
16.596	89441.00	